(sec),(mm),(kgf)
0,0,-0.00169
0.1,0.00536,0.02497
0.2,0.01318,0.08528
0.3,0.01998,0.09944
0.4,0.02662,0.12383
0.5,0.03327,0.14632
0.6,0.04002,0.15684
0.7,0.04666,0.19333
0.8,0.05325,0.20889
0.9,0.06005,0.23128
1,0.0667,0.25847
1.1,0.07329,0.28495
1.2,0.08004,0.29046
1.3,0.08657,0.31197
1.4,0.09321,0.33781
1.5,0.10012,0.37308
1.6,0.10666,0.37352
1.7,0.11325,0.41772
1.8,0.12016,0.43824
1.9,0.12664,0.44067
2,0.13323,0.4587
2.1,0.14004,0.46932
2.2,0.14668,0.52238
2.3,0.15332,0.54073
2.4,0.16007,0.55062
2.5,0.16666,0.55694
2.6,0.17336,0.5734
2.7,0.18,0.61447
2.8,0.18659,0.62997
2.9,0.19334,0.61024
3,0.20004,0.63501
3.1,0.20668,0.643
3.2,0.21337,0.6663
3.3,0.21996,0.69605
3.4,0.22666,0.70265
3.5,0.23341,0.73631
3.6,0.23995,0.7269
3.7,0.24659,0.74906
3.8,0.25345,0.77153
3.9,0.25998,0.77884
4,0.26657,0.79706
4.1,0.27343,0.81486
4.2,0.28002,0.83072
4.3,0.28661,0.86213
4.4,0.29341,0.83889
4.5,0.3,0.88297
4.6,0.30664,0.88845
4.7,0.31345,0.91749
4.8,0.31998,0.9176
4.9,0.32662,0.92468
5,0.33348,0.97488
5.1,0.33996,0.94937
5.2,0.34661,0.93796
5.3,0.3533,0.98395
5.4,0.36,0.98514
5.5,0.3667,0.9988
5.6,0.37334,1.01248
5.7,0.37998,1.02444
5.8,0.38673,1.0587
5.9,0.39332,1.05312
6,0.39991,1.07185
6.1,0.40671,1.11329
6.2,0.4133,1.10657
6.3,0.41995,1.12409
6.4,0.4268,1.11074
6.5,0.43329,1.13537
6.6,0.43998,1.15544
6.7,0.44679,1.16655
6.8,0.45332,1.17669
6.9,0.45991,1.18171
7,0.46677,1.20762
7.1,0.4733,1.21378
7.2,0.47995,1.22581
7.3,0.48675,1.24917
7.4,0.49339,1.23371
7.5,0.49993,1.26258
7.6,0.50673,1.25391
7.7,0.51332,1.26417
7.8,0.51996,1.26926
7.9,0.52671,1.29653
8,0.53336,1.30008
8.1,0.54,1.32098
8.2,0.54664,1.34802
8.3,0.55329,1.34621
8.4,0.56004,1.34769
8.5,0.56662,1.37542
8.6,0.57327,1.36671
8.7,0.58012,1.34429
8.8,0.58661,1.37474
8.9,0.59325,1.42603
9,0.60016,1.41199
9.1,0.60664,1.39718
9.2,0.61329,1.41639
9.3,0.62009,1.45568
9.4,0.62668,1.44828
9.5,0.63327,1.45149
9.6,0.64007,1.47074
9.7,0.64671,1.48129
9.8,0.65336,1.49331
9.9,0.66011,1.46897
10,0.6667,1.5121
10.1,0.67329,1.50197
10.2,0.67998,1.53756
10.3,0.68668,1.52709
10.4,0.69337,1.5445
10.5,0.70002,1.5592
10.6,0.70666,1.54679
10.7,0.71336,1.56953
10.8,0.72,1.57611
10.9,0.72654,1.57207
11,0.73339,1.59992
11.1,0.74004,1.58931
11.2,0.74662,1.59589
11.3,0.75343,1.61722
11.4,0.76002,1.62796
11.5,0.76661,1.63482
11.6,0.77346,1.65189
11.7,0.77989,1.6503
11.8,0.78654,1.64678
11.9,0.7935,1.65282
12,0.79998,1.68411
12.1,0.80657,1.67581
12.2,0.81343,1.68771
12.3,0.82002,1.69425
12.4,0.82661,1.70691
12.5,0.8333,1.70333
12.6,0.84,1.71818
12.7,0.84664,1.72289
12.8,0.85339,1.72131
12.9,0.85998,1.72887
13,0.86673,1.75291
13.1,0.87337,1.72919
13.2,0.87996,1.73446
13.3,0.88666,1.76356
13.4,0.8933,1.77809
13.5,0.89995,1.76267
13.6,0.90675,1.76612
13.7,0.91334,1.78963
13.8,0.91998,1.784
13.9,0.92679,1.80661
14,0.93332,1.80568
14.1,0.93986,1.81668
14.2,0.94671,1.80118
14.3,0.95336,1.82669
14.4,0.96,1.83446
14.5,0.9668,1.83486
14.6,0.97334,1.83161
14.7,0.97993,1.86446
14.8,0.98673,1.86902
14.9,0.99327,1.87145
15,0.99996,1.88122
15.1,1.00677,1.88177
15.2,1.01336,1.88033
15.3,1.02,1.89014
15.4,1.0267,1.88514
15.5,1.03334,1.89863
15.6,1.04004,1.88621
15.7,1.04662,1.89015
15.8,1.05327,1.93337
15.9,1.06012,1.92695
16,1.06666,1.92909
16.1,1.07325,1.92718
16.2,1.08011,1.91921
16.3,1.0867,1.95944
16.4,1.09329,1.96089
16.5,1.10004,1.9516
16.6,1.10662,1.96968
16.7,1.11327,1.96735
16.8,1.12012,1.97153
16.9,1.12666,1.97599
17,1.1333,2.00049
17.1,1.14016,1.98993
17.2,1.1467,2.00086
17.3,1.15323,1.98203
17.4,1.16003,1.99564
17.5,1.16668,2.01731
17.6,1.17332,1.99905
17.7,1.18007,2.02506
17.8,1.18666,2.02865
17.9,1.19336,2.05156
18,1.2,2.04758
18.1,1.20653,2.04605
18.2,1.21334,2.0584
18.3,1.22003,2.07532
18.4,1.22668,2.06782
18.5,1.23343,2.06118
18.6,1.23996,2.04804
18.7,1.24661,2.07641
18.8,1.25341,2.08418
18.9,1.25989,2.07651
19,1.26659,2.1026
19.1,1.2735,2.07761
19.2,1.27998,2.0977
19.3,1.28657,2.09915
19.4,1.29348,2.09407
19.5,1.30002,2.11628
19.6,1.30661,2.12233
19.7,1.31336,2.136
19.8,1.32,2.13765
19.9,1.32664,2.14695
20,1.33339,2.15949
20.1,1.34003,2.15615
20.2,1.34662,2.16469
20.3,1.35337,2.16436
20.4,1.35996,2.152
20.5,1.36661,2.16335
20.6,1.3733,2.15585
20.7,1.38,2.19271
20.8,1.3867,2.18819
20.9,1.39334,2.17707
21,1.39993,2.18051
21.1,1.40678,2.18745
21.2,1.41332,2.21025
21.3,1.41986,2.20225
21.4,1.42671,2.21074
21.5,1.4333,2.22298
21.6,1.43995,2.23836
21.7,1.4468,2.24475
21.8,1.45328,2.23926
21.9,1.45998,2.24662
22,1.46678,2.24153
22.1,1.47327,2.22846
22.2,1.47991,2.24573
22.3,1.48677,2.26549
22.4,1.49341,2.27255
22.5,1.49995,2.26073
22.6,1.5067,2.24823
22.7,1.51339,2.28635
22.8,1.51998,2.29074
22.9,1.52662,2.27548
23,1.53327,2.29311
23.1,1.54007,2.2994
23.2,1.54666,2.3104
23.3,1.5533,2.30257
23.4,1.56005,2.31414
23.5,1.56664,2.32601
23.6,1.57323,2.29554
23.7,1.58003,2.31641
23.8,1.58662,2.33352
23.9,1.59327,2.33923
24,1.60012,2.36272
24.1,1.60661,2.32701
24.2,1.61325,2.3475
24.3,1.62011,2.35191
24.4,1.62664,2.36287
24.5,1.63323,2.3587
24.6,1.64003,2.35609
24.7,1.64668,2.36719
24.8,1.65327,2.35863
24.9,1.66007,2.35766
25,1.66666,2.38817
25.1,1.67336,2.37455
25.2,1.68005,2.40784
25.3,1.68664,2.38114
25.4,1.69334,2.40668
25.5,1.69998,2.41195
25.6,1.70662,2.39588
25.7,1.71337,2.40343
25.8,1.71996,2.41784
25.9,1.72671,2.41874
26,1.73346,2.44353
26.1,1.73995,2.42353
26.2,1.74653,2.44312
26.3,1.75345,2.45384
26.4,1.75998,2.43772
26.5,1.76662,2.43963
26.6,1.77343,2.44614
26.7,1.78002,2.44914
26.8,1.78661,2.45882
26.9,1.79336,2.46128
27,1.8,2.46979
27.1,1.80664,2.46293
27.2,1.81345,2.48562
27.3,1.82003,2.48582
27.4,1.82657,2.48182
27.5,1.83343,2.50823
27.6,1.83996,2.4918
27.7,1.84661,2.48037
27.8,1.85336,2.50567
27.9,1.86,2.52399
28,1.8667,2.5137
28.1,1.87334,2.51855
28.2,1.87993,2.50725
28.3,1.88673,2.54359
28.4,1.89332,2.54429
28.5,1.89996,2.50857
28.6,1.90671,2.51984
28.7,1.9133,2.53433
28.8,1.91989,2.52957
28.9,1.92675,2.53175
29,1.93328,2.5454
29.1,1.93998,2.55322
29.2,1.94678,2.55405
29.3,1.95332,2.55194
29.4,1.95991,2.56794
29.5,1.96671,2.57842
29.6,1.97336,2.57357
29.7,1.97995,2.59072
29.8,1.98675,2.58409
29.9,1.99339,2.58576
30,1.99998,2.59692
30.1,2.00668,2.58545
30.2,2.01327,2.60301
30.3,2.01996,2.58739
30.4,2.02671,2.59345
30.5,2.03336,2.61136
30.6,2.04,2.61565
30.7,2.0467,2.62467
30.8,2.05328,2.63068
30.9,2.06003,2.61254
31,2.06657,2.63848
31.1,2.07327,2.63007
31.2,2.08012,2.62348
31.3,2.08661,2.62626
31.4,2.09325,2.6554
31.5,2.10011,2.65921
31.6,2.10659,2.66971
31.7,2.11328,2.64564
31.8,2.12009,2.65564
31.9,2.12662,2.68103
32,2.13327,2.6577
32.1,2.14012,2.67069
32.2,2.14666,2.6942
32.3,2.1533,2.69237
32.4,2.16011,2.66575
32.5,2.1667,2.67334
32.6,2.17328,2.68817
32.7,2.18003,2.68568
32.8,2.18668,2.69867
32.9,2.19332,2.69325
33,2.20002,2.71964
33.1,2.20671,2.7096
33.2,2.21336,2.69923
33.3,2.22,2.71173
33.4,2.22653,2.73405
33.5,2.23339,2.72361
33.6,2.23998,2.73401
33.7,2.24662,2.7223
33.8,2.25343,2.7494
33.9,2.25996,2.75047
34,2.26661,2.73629
34.1,2.27346,2.74535
34.2,2.27989,2.76677
34.3,2.28653,2.75323
34.4,2.2935,2.75963
34.5,2.29998,2.78378
34.6,2.30662,2.77228
34.7,2.31348,2.77255
34.8,2.32002,2.77113
34.9,2.32661,2.79391
35,2.3333,2.81075
35.1,2.34,2.7742
35.2,2.34669,2.78431
35.3,2.35339,2.80866
35.4,2.35998,2.78629
35.5,2.36668,2.78023
35.6,2.37332,2.792
35.7,2.37996,2.78925
35.8,2.38671,2.82242
35.9,2.3933,2.79523
36,2.4,2.81488
36.1,2.40675,2.81454
36.2,2.41328,2.83972
36.3,2.41993,2.82796
36.4,2.42678,2.82949
36.5,2.43332,2.85777
36.6,2.43991,2.81554
36.7,2.44677,2.85123
36.8,2.45336,2.83607
36.9,2.45994,2.87272
37,2.46675,2.86879
37.1,2.47334,2.87419
37.2,2.47998,2.87623
37.3,2.48673,2.86876
37.4,2.49327,2.86083
37.5,2.49991,2.85063
37.6,2.50671,2.86038
37.7,2.51336,2.87582
37.8,2.52,2.90893
37.9,2.52669,2.8769
38,2.53334,2.86935
38.1,2.54003,2.9033
38.2,2.54657,2.89134
38.3,2.55327,2.9075
38.4,2.56012,2.92087
38.5,2.56671,2.91711
38.6,2.57325,2.90415
38.7,2.58011,2.91269
38.8,2.58669,2.91919
38.9,2.59328,2.93216
39,2.60003,2.92703
39.1,2.60662,2.90895
39.2,2.61332,2.95965
39.3,2.62012,2.93829
39.4,2.62666,2.94508
39.5,2.63325,2.95351
39.6,2.64011,2.9437
39.7,2.64669,2.92319
39.8,2.65323,2.95048
39.9,2.66003,2.95564
40,2.66673,2.95491
40.1,2.67332,2.95494
40.2,2.68002,2.96477
40.3,2.68666,2.97709
40.4,2.69336,2.96294
40.5,2.7,2.99223
40.6,2.70659,2.94669
40.7,2.71334,3.00635
40.8,2.72003,2.99319
40.9,2.72662,2.98202
41,2.73337,2.99202
41.1,2.74002,2.97733
41.2,2.74666,3.00325
41.3,2.75341,2.98837
41.4,2.75989,2.96835
41.5,2.76653,3.02353
41.6,2.77339,3.00821
41.7,2.77998,3.02214
41.8,2.78662,3.00404
41.9,2.79348,3.02925
42,2.80002,3.02494
42.1,2.80661,3.00443
42.2,2.81336,3.02475
42.3,2.82,3.04694
42.4,2.82664,3.05429
42.5,2.83344,3.03842
42.6,2.84003,3.0324
42.7,2.84668,3.03931
42.8,2.85343,3.06624
42.9,2.85996,3.03319
43,2.86661,3.05875
43.1,2.8733,3.05982
43.2,2.88,3.05907
43.3,2.88675,3.05402
43.4,2.89334,3.05064
43.5,2.89993,3.08306
43.6,2.90673,3.06173
43.7,2.91327,3.09387
43.8,2.91986,3.07056
43.9,2.92671,3.0828
44,2.93336,3.10256
44.1,2.93994,3.08401
44.2,2.94675,3.09013
44.3,2.95328,3.09665
44.4,2.95998,3.09607
44.5,2.96678,3.09232
44.6,2.97327,3.09572
44.7,2.97991,3.11246
44.8,2.98677,3.11441
44.9,2.9933,3.11875
45,2.99994,3.12789
45.1,3.00669,3.10272
45.2,3.01339,3.12955
45.3,3.02003,3.14021
45.4,3.02662,3.1145
45.5,3.03327,3.11854
45.6,3.04002,3.13424
45.7,3.04666,3.13446
45.8,3.0533,3.13718
45.9,3.06005,3.14656
46,3.06669,3.13301
46.1,3.07328,3.12267
46.2,3.08003,3.15485
46.3,3.08657,3.15612
46.4,3.09327,3.16103
46.5,3.10018,3.17311
46.6,3.10666,3.15501
46.7,3.11325,3.15639
46.8,3.12016,3.18164
46.9,3.12664,3.18015
47,3.13323,3.17669
47.1,3.14003,3.19448
47.2,3.14668,3.16623
47.3,3.15332,3.18198
47.4,3.16007,3.19001
47.5,3.16666,3.18707
47.6,3.1733,3.18355
47.7,3.18,3.18726
47.8,3.18664,3.2049
47.9,3.19328,3.20596
48,3.19998,3.19065
48.1,3.20668,3.19307
48.2,3.21337,3.22092
48.3,3.21996,3.22406
48.4,3.22666,3.20508
48.5,3.23346,3.21178
48.6,3.23994,3.21389
48.7,3.24653,3.21454
48.8,3.25344,3.23665
48.9,3.25998,3.24078
49,3.26657,3.23452
49.1,3.27343,3.24302
49.2,3.28007,3.2484
49.3,3.28661,3.24801
49.4,3.29341,3.24133
49.5,3.29994,3.24511
49.6,3.30659,3.2485
49.7,3.31344,3.2698
49.8,3.32003,3.27421
49.9,3.32662,3.24408
50,3.33343,3.2591
50.1,3.34002,3.26411
50.2,3.3466,3.24715
50.3,3.3533,3.26057
50.4,3.35994,3.27633
50.5,3.36669,3.28262
50.6,3.37334,3.27704
50.7,3.37998,3.2854
50.8,3.38673,3.29448
50.9,3.39332,3.30262
51,3.39991,3.28132
51.1,3.40671,3.29919
51.2,3.4133,3.30525
51.3,3.41994,3.3039
51.4,3.4268,3.28578
51.5,3.43328,3.32862
51.6,3.43998,3.29473
51.7,3.44678,3.31877
51.8,3.45332,3.31223
51.9,3.45996,3.328
52,3.46671,3.33696
52.1,3.47335,3.31114
52.2,3.47994,3.32151
52.3,3.48669,3.35476
52.4,3.49339,3.34625
52.5,3.49998,3.31932
52.6,3.50673,3.33247
52.7,3.51332,3.3356
52.8,3.51996,3.33371
52.9,3.52671,3.33339
53,3.5333,3.35918
53.1,3.54,3.34706
53.2,3.54675,3.36856
53.3,3.55328,3.34853
53.4,3.56003,3.37562
53.5,3.56657,3.35688
53.6,3.57321,3.36275
53.7,3.58007,3.37697
53.8,3.58666,3.37259
53.9,3.59325,3.38265
54,3.6001,3.38061
54.1,3.60664,3.36307
54.2,3.61328,3.38371
54.3,3.62003,3.37894
54.4,3.62662,3.38779
54.5,3.63332,3.39117
54.6,3.64018,3.38646
54.7,3.64666,3.38751
54.8,3.6533,3.41176
54.9,3.66005,3.40806
55,3.66664,3.40853
55.1,3.67328,3.40088
55.2,3.68003,3.38567
55.3,3.68673,3.43465
55.4,3.69337,3.43318
55.5,3.70002,3.43502
55.6,3.70666,3.45139
55.7,3.71335,3.44307
55.8,3.72,3.42431
55.9,3.72659,3.43408
56,3.73339,3.43811
56.1,3.74003,3.42595
56.2,3.74662,3.43184
56.3,3.75343,3.44042
56.4,3.75996,3.44346
56.5,3.7666,3.46714
56.6,3.77346,3.45637
56.7,3.77989,3.48299
56.8,3.78653,3.45994
56.9,3.79344,3.46443
57,3.79998,3.46771
57.1,3.80657,3.47675
57.2,3.81343,3.47047
57.3,3.82002,3.48035
57.4,3.8266,3.49204
57.5,3.83335,3.48839
57.6,3.84,3.46575
57.7,3.84664,3.4814
57.8,3.85339,3.49984
57.9,3.85998,3.49263
58,3.86673,3.48842
58.1,3.87337,3.49184
58.2,3.87996,3.51959
58.3,3.88666,3.50938
58.4,3.89325,3.4913
58.5,3.9,3.51354
58.6,3.9068,3.50181
58.7,3.91328,3.5311
58.8,3.91993,3.54087
58.9,3.92678,3.54597
59,3.93327,3.53261
59.1,3.93985,3.54137
59.2,3.94677,3.52306
59.3,3.95335,3.52142
59.4,3.95994,3.53298
59.5,3.96675,3.5438
59.6,3.97334,3.53863
59.7,3.97993,3.56161
59.8,3.98673,3.55527
59.9,3.99332,3.5325
60,3.99996,3.55749
60.1,4.00677,3.55491
60.2,4.01335,3.5676
60.3,4.02,3.55744
60.4,4.02669,3.54462
60.5,4.03339,3.55742
60.6,4.04003,3.56187
60.7,4.04662,3.56699
60.8,4.05327,3.57484
60.9,4.06012,3.58536
61,4.0666,3.58923
61.1,4.07325,3.5904
61.2,4.0801,3.59152
61.3,4.08669,3.59632
61.4,4.09328,3.60291
61.5,4.10003,3.58457
61.6,4.10662,3.58673
61.7,4.11327,3.60806
61.8,4.12012,3.63244
61.9,4.12671,3.61001
62,4.1333,3.60176
62.1,4.14016,3.61057
62.2,4.14669,3.61115
62.3,4.15323,3.62946
62.4,4.15998,3.60693
62.5,4.16673,3.61261
62.6,4.17332,3.62886
62.7,4.18007,3.63069
62.8,4.18666,3.64856
62.9,4.19335,3.63537
63,4.2,3.63395
63.1,4.20653,3.63547
63.2,4.21334,3.62709
63.3,4.22003,3.64915
63.4,4.22668,3.64519
63.5,4.23343,3.63846
63.6,4.23996,3.64131
63.7,4.2466,3.64291
63.8,4.25341,3.66012
63.9,4.25989,3.63986
64,4.26653,3.66986
64.10001,4.2735,3.636
64.2,4.28003,3.65698
64.3,4.28657,3.65354
64.4,4.29343,3.69147
64.5,4.30007,3.66582
64.60001,4.3066,3.67528
64.7,4.31335,3.67259
64.8,4.32,3.69609
64.9,4.32664,3.70461
65,4.33339,3.69971
65.10001,4.34003,3.68492
65.2,4.34668,3.68752
65.3,4.35343,3.68992
65.4,4.35996,3.68557
65.5,4.3666,3.68724
65.60001,4.3733,3.67276
65.70001,4.37994,3.70436
65.8,4.38669,3.71371
65.9,4.39334,3.70175
66,4.39993,3.6981
66.10001,4.40678,3.70476
66.20001,4.41326,3.72938
66.3,4.41985,3.71634
66.4,4.42671,3.7214
66.5,4.4333,3.72576
66.60001,4.44,3.70997
66.70001,4.4468,3.70699
66.8,4.45328,3.73712
66.9,4.45998,3.74212
67,4.46678,3.73468
67.10001,4.47326,3.73535
67.20001,4.47996,3.76439
67.3,4.48682,3.75225
67.4,4.49335,3.74069
67.5,4.5,3.74356
67.60001,4.50675,3.73063
67.70001,4.51339,3.74957
67.8,4.51998,3.74544
67.9,4.52662,3.76474
68,4.53326,3.75939
68.10001,4.54002,3.73633
68.20001,4.54666,3.77016
68.3,4.55325,3.78828
68.4,4.56,3.7562
68.5,4.56664,3.77269
68.60001,4.57328,3.75366
68.70001,4.58003,3.77172
68.8,4.58662,3.76495
68.9,4.59326,3.78245
69,4.60012,3.78842
69.10001,4.6066,3.79371
69.20001,4.61325,3.76579
69.3,4.62021,3.79131
69.4,4.62664,3.80836
69.5,4.63323,3.80623
69.60001,4.64003,3.79421
69.70001,4.64668,3.80552
69.8,4.65326,3.81373
69.9,4.66007,3.82011
70,4.66666,3.80237
70.10001,4.67335,3.80189
70.20001,4.68005,3.80389
70.3,4.68664,3.80799
70.4,4.69328,3.80707
70.5,4.69998,3.82449
70.60001,4.70668,3.80817
70.70001,4.71337,3.82047
70.8,4.71996,3.81789
70.9,4.72666,3.82554
71,4.73341,3.82345
71.10001,4.73994,3.83317
71.20001,4.74659,3.82636
71.3,4.75344,3.82731
71.4,4.75998,3.84339
71.5,4.76657,3.83472
71.60001,4.77343,3.83793
71.70001,4.78002,3.84646
71.8,4.7866,3.84038
71.9,4.79346,3.86968
72,4.8,3.84748
72.10001,4.80664,3.84022
72.20001,4.81344,3.87845
72.3,4.82003,3.86809
72.4,4.82657,3.87128
72.5,4.83343,3.871
72.60001,4.84001,3.86932
72.70001,4.8466,3.87716
72.8,4.8533,3.88796
72.9,4.86,3.87599
73,4.86669,3.88784
73.10001,4.87334,3.85939
73.20001,4.87998,3.89103
73.3,4.88678,3.89282
73.4,4.89332,3.88812
73.5,4.89991,3.88519
73.60001,4.90671,3.88395
73.70001,4.9133,3.88661
73.8,4.91994,3.89026
73.9,4.9268,3.88716
74,4.93328,3.90583
74.10001,4.93998,3.90128
74.20001,4.94678,3.91092
74.3,4.95332,3.92105
74.4,4.95985,3.91851
74.5,4.96671,3.91829
74.60001,4.97335,3.91589
74.70001,4.98,3.91866
74.8,4.98675,3.91609
74.9,4.99339,3.90993
75,4.99998,3.9335
75.10001,5.00667,3.92652
75.20001,5.01326,3.93563
75.3,5.02001,3.92626
75.4,5.02671,3.93383
75.5,5.03335,3.93937
75.60001,5.04,3.94198
75.70001,5.04669,3.94835
75.8,5.05328,3.9661
75.9,5.06003,3.93829
76,5.06662,3.93718
76.10001,5.07326,3.94855
76.20001,5.08012,3.95328
76.3,5.08666,3.94569
76.4,5.09325,3.95183
76.5,5.1001,3.98376
76.60001,5.10664,3.97356
76.70001,5.11328,3.96888
76.8,5.12003,3.96033
76.9,5.12662,3.95712
77,5.13326,3.95504
77.10001,5.14007,3.97249
77.20001,5.14666,3.96094
77.3,5.15335,3.98317
77.4,5.1601,3.97627
77.5,5.16669,3.97109
77.60001,5.17328,3.97058
77.70001,5.17998,3.98891
77.8,5.18668,4.00126
77.9,5.19332,3.99164
78,5.20007,4.00616
78.10001,5.20666,4.00301
78.20001,5.21335,3.9926
78.3,5.22,4.00794
78.4,5.22659,4.01318
78.5,5.23334,3.9975
78.60001,5.23998,3.9905
78.70001,5.24662,3.99072
78.8,5.25343,4.0125
78.9,5.26001,4.01372
79,5.2666,4.01018
79.10001,5.27341,4.01471
79.20001,5.27994,4.02256
79.3,5.28659,4.01539
79.4,5.2935,4.02229
79.5,5.30003,4.03601
79.60001,5.30662,4.01764
79.70001,5.31343,4.01862
79.8,5.31996,4.02108
79.9,5.3266,4.03755
80,5.33335,4.03373
80.10001,5.34,4.01623
80.20001,5.34664,4.04079
80.3,5.35339,4.04923
80.4,5.35998,4.04941
80.50001,5.36667,4.04181
80.60001,5.37337,4.05586
80.70001,5.37996,4.04522
80.8,5.38666,4.05097
80.9,5.3933,4.0441
81.00001,5.4,4.05945
81.10001,5.40675,4.05302
81.20001,5.41328,4.08012
81.3,5.41998,4.07468
81.4,5.42678,4.08082
81.50001,5.43332,4.07666
81.60001,5.43985,4.06048
81.70001,5.44676,4.04166
81.8,5.45335,4.07366
81.9,5.45994,4.06496
82.00001,5.4668,4.0675
82.10001,5.47334,4.07077
82.20001,5.47998,4.07643
82.3,5.48673,4.0852
82.4,5.49326,4.0821
82.50001,5.49991,4.08557
82.60001,5.50676,4.07623
82.70001,5.51335,4.11285
82.8,5.52,4.07023
82.9,5.52669,4.09435
83.00001,5.53334,4.09331
83.10001,5.54003,4.06496
83.20001,5.54657,4.10592
83.3,5.55326,4.0956
83.4,5.56012,4.098
83.50001,5.56666,4.119
83.60001,5.57325,4.09898
83.70001,5.5801,4.11234
83.8,5.58664,4.10613
83.9,5.59328,4.12219
84.00001,5.60009,4.12789
84.10001,5.60662,4.09083
84.20001,5.61332,4.11876
84.3,5.62012,4.12784
84.4,5.62666,4.0986
84.50001,5.63325,4.12314
84.60001,5.64016,4.11282
84.70001,5.64669,4.13458
84.8,5.65323,4.12637
84.9,5.66003,4.13832
85.00001,5.66673,4.12319
85.10001,5.67332,4.11302
85.20001,5.68001,4.13822
85.3,5.68666,4.13435
85.4,5.69335,4.1527
85.50001,5.7,4.13452
85.60001,5.70653,4.15954
85.70001,5.71334,4.15013
85.8,5.71998,4.14652
85.9,5.72668,4.14667
86.00001,5.73342,4.15774
86.10001,5.73996,4.14671
86.20001,5.74666,4.14571
86.3,5.75341,4.15108
86.4,5.75989,4.15534
86.50001,5.76653,4.18479
86.60001,5.7735,4.154
86.70001,5.78003,4.1617
86.8,5.78662,4.15274
86.9,5.79342,4.16389
87.00001,5.80007,4.15729
87.10001,5.8066,4.16734
87.20001,5.81335,4.16178
87.3,5.82,4.17793
87.4,5.82669,4.17218
87.50001,5.83339,4.17802
87.60001,5.84003,4.19083
87.70001,5.84662,4.19184
87.8,5.85337,4.18273
87.9,5.85996,4.20735
88.00001,5.86666,4.16733
88.10001,5.8733,4.19314
88.20001,5.88,4.20412
88.3,5.88675,4.18104
88.4,5.89334,4.1927
88.50001,5.89992,4.20694
88.60001,5.90678,4.1781
88.70001,5.91332,4.20094
88.8,5.91985,4.191
88.9,5.92676,4.2211
89.00001,5.9333,4.20585
89.10001,5.93994,4.23035
89.20001,5.94675,4.22616
89.3,5.95328,4.22192
89.4,5.95998,4.21369
89.50001,5.96678,4.21775
89.60001,5.97332,4.21396
89.70001,5.97991,4.22762
89.8,5.98671,4.20742
89.9,5.99335,4.20549
90.00001,6,4.18708
90.10001,6.00675,4.21614
90.20001,6.01339,4.24122
90.3,6.01998,4.23624
90.4,6.02667,4.23433
90.50001,6.03326,4.22518
90.60001,6.04001,4.23429
90.70001,6.04671,4.24561
90.8,6.0533,4.21452
90.9,6.06005,4.23593
91.00001,6.06669,4.24579
91.10001,6.07328,4.23252
91.20001,6.08003,4.24359
91.3,6.08662,4.21819
91.4,6.09332,4.25462
91.50001,6.10012,4.25239
91.60001,6.10666,4.23378
91.70001,6.11325,4.25886
91.8,6.1201,4.26713
91.9,6.12664,4.23039
92.00001,6.13323,4.26118
92.10001,6.14003,4.27264
92.20001,6.14667,4.27011
92.3,6.15332,4.26131
92.4,6.16007,4.25701
92.50001,6.1666,4.27107
92.60001,6.1733,4.27761
92.70001,6.18005,4.26185
92.8,6.18664,4.27896
92.9,6.19334,4.27196
93.00001,6.20003,4.28649
93.10001,6.20667,4.28555
93.20001,6.21337,4.27166
93.3,6.21996,4.28541
93.4,6.22671,4.29506
93.50001,6.23341,4.2758
93.60001,6.23994,4.27478
93.70001,6.24653,4.28854
93.8,6.25339,4.31382
93.9,6.25998,4.28317
94.00001,6.26662,4.29793
94.10001,6.27342,4.27785
94.20001,6.28001,4.30153
94.3,6.2866,4.2846
94.4,6.29341,4.29749
94.50001,6.29994,4.30793
94.60001,6.30664,4.30482
94.70001,6.3135,4.29099
94.8,6.32003,4.31076
94.9,6.32657,4.29968
